   emu(eV)      n(10^20/cm3)               DOS            intDOS            DOSvk2         |vk|(m/s)             sigma                ke      L(1E-8V2K-2)           S(uV/K)                PF  EFF(10^-20 W^5/3 m s^-1/3 K^-2)
  -3.00000    -1994.7516         1.1416833         13.690276        0.28657639E+12     501011.14        0.29612243E+21    0.48929389E+16     2.0654206         51.957312         79.940095         2.9953368    
  -2.99000    -1992.5554         1.1285354         13.701627        0.27879942E+12     497036.55        0.28808640E+21    0.47304023E+16     2.0525103         53.872836         83.610809         3.1571634    
  -2.98000    -1990.3845         1.1155156         13.712847        0.27093835E+12     492830.31        0.27996347E+21    0.45676062E+16     2.0393759         55.890833         87.454578         3.3279507    
  -2.97000    -1988.2387         1.1025826         13.723938        0.26299464E+12     488391.26        0.27175516E+21    0.44048430E+16     2.0261083         58.017221         91.472728         3.5080221    
  -2.96000    -1986.1178         1.0896879         13.734899        0.25497040E+12     483719.75        0.26346363E+21    0.42424340E+16     2.0128177         60.257912         95.664064         3.6976475    
  -2.95000    -1984.0220         1.0767756         13.745731        0.24686861E+12     478817.85        0.25509196E+21    0.40807292E+16     1.9996363         62.618714         100.02419         3.8970234    
  -2.94000    -1981.9512         1.0637815         13.756434        0.23869328E+12     473689.62        0.24664430E+21    0.39201059E+16     1.9867203         65.105216         104.54485         4.1062538    
  -2.93000    -1979.9056         1.0506332         13.767007        0.23044966E+12     468341.32        0.23812609E+21    0.37609666E+16     1.9742517         67.722700         109.21329         4.3253326    
  -2.92000    -1977.8857         1.0372496         13.777446        0.22214444E+12     462781.62        0.22954421E+21    0.36037381E+16     1.9624423         70.476046         114.01170         4.5541292    
  -2.91000    -1975.8920         1.0235404         13.787750        0.21378583E+12     457021.86        0.22090717E+21    0.34488714E+16     1.9515389         73.369628         118.91659         4.7923726    
  -2.90000    -1973.9253         1.0094066         13.797916        0.20538369E+12     451076.19        0.21222515E+21    0.32968438E+16     1.9418315         76.407145         123.89814         5.0396317    
  -2.89000    -1971.9863        0.99474072         13.807937        0.19694961E+12     444961.68        0.20351012E+21    0.31481613E+16     1.9336638         79.591379         128.91934         5.2952880    
  -2.88000    -1970.0764        0.97942798         13.817808        0.18849704E+12     438698.36        0.19477599E+21    0.30033610E+16     1.9274456         82.923835         133.93503         5.5584958    
  -2.87000    -1968.1968        0.96334860         13.827523        0.18004138E+12     432309.16        0.18603867E+21    0.28630117E+16     1.9236670         86.404273         138.89086         5.8281331    
  -2.86000    -1966.3491        0.94638111         13.837072        0.17160017E+12     425819.77        0.17731627E+21    0.27277119E+16     1.9229142         90.030117         143.72232         6.1027412    
  -2.85000    -1964.5353        0.92840676         13.846447        0.16319312E+12     419258.41        0.16862919E+21    0.25980857E+16     1.9258867         93.795775         148.35401         6.3804583    
  -2.84000    -1962.7572        0.90931499         13.855637        0.15484228E+12     412655.47        0.16000017E+21    0.24747765E+16     1.9334170         97.691858         152.69935         6.6589496    
  -2.83000    -1961.0173        0.88900961         13.864629        0.14657194E+12     406043.15        0.15145434E+21    0.23584393E+16     1.9464937         101.70429         156.66078         6.9353345    
  -2.82000    -1959.3179        0.86741543         13.873413        0.13840850E+12     399454.95        0.14301897E+21    0.22497329E+16     1.9662889         105.81331         160.13058         7.2061112    
  -2.81000    -1957.6616        0.84448495         13.881973        0.13038023E+12     392925.23        0.13472328E+21    0.21493116E+16     1.9941910         109.99230         162.99236         7.4670787    
  -2.80000    -1956.0509        0.82020460         13.890298        0.12251688E+12     386488.75        0.12659799E+21    0.20578172E+16     2.0318423         114.20639         165.12303         7.7132536    
  -2.79000    -1954.4885        0.79459994         13.898373        0.11484914E+12     380180.31        0.11867484E+21    0.19758690E+16     2.0811794         118.41086         166.39555         7.9387867    
  -2.78000    -1952.9769        0.76773944         13.906186        0.10740816E+12     374034.55        0.11098600E+21    0.19040527E+16     2.1444741         122.54922         166.68222         8.1368846    
  -2.77000    -1951.5184        0.73973615         13.913724        0.10022488E+12     368086.04        0.10356343E+21    0.18429043E+16     2.2243666         126.55111         165.85872         8.2997534    
  -2.76000    -1950.1150        0.71074703         13.920977        0.93329393E+11     362369.55        0.96438253E+20    0.17928882E+16     2.3238810         130.32994         163.80899         8.4185857    
  -2.75000    -1948.7685        0.68096976         13.927936        0.86750366E+11     356920.71        0.89640074E+20    0.17543677E+16     2.4464054         133.78063         160.43114         8.4836268    
  -2.74000    -1947.4803        0.65063725         13.934595        0.80514378E+11     351776.85        0.83196362E+20    0.17275658E+16     2.5956150         136.77751         155.64447         8.4843620    
  -2.73000    -1946.2510        0.62001009         13.940948        0.74645374E+11     346978.10        0.77131858E+20    0.17125146E+16     2.7753036         139.17305         149.39776         8.4098780    
  -2.72000    -1945.0811        0.58936756         13.946995        0.69164142E+11     342568.47        0.71468042E+20    0.17089940E+16     2.9890877         140.79795         141.67870         8.2494537    
  -2.71000    -1943.9702        0.55899796         13.952736        0.64087872E+11     338596.77        0.66222679E+20    0.17164619E+16     3.2399436         141.46345         132.52421         7.9934303    
  -2.70000    -1942.9176        0.52918889         13.958176        0.59429801E+11     335117.25        0.61409444E+20    0.17339807E+16     3.5295482         140.96695         122.03088         7.6343849    
  -2.69000    -1941.9219        0.50021810         13.963323        0.55198956E+11     332189.37        0.57037667E+20    0.17601501E+16     3.8574291         139.10196         110.36420         7.1685844    
  -2.68000    -1940.9812        0.47234541         13.968185        0.51400016E+11     329876.80        0.53112182E+20    0.17930620E+16     4.2199877         135.67314         97.764655         6.5976131    
  -2.67000    -1940.0932        0.44580604         13.972774        0.48033287E+11     328245.04        0.49633305E+20    0.18302981E+16     4.6095512         130.51649         84.548123         5.9299557    
  -2.66000    -1939.2551        0.42080547         13.977106        0.45094805E+11     327357.71        0.46596941E+20    0.18689894E+16     5.0137127         123.52348         71.097852         5.1821940    
  -2.65000    -1938.4637        0.39751596         13.981196        0.42576561E+11     327271.36        0.43994813E+20    0.19059581E+16     5.4152923         114.66619         57.845854         4.3793935    
  -2.64000    -1937.7156        0.37607468         13.985062        0.40466828E+11     328029.22        0.41814803E+20    0.19379438E+16     5.7932350         104.01880         45.243243         3.5542593    
  -2.63000    -1937.0072        0.35658328         13.988724        0.38750597E+11     329654.27        0.40041403E+20    0.19618978E+16     6.1245911         91.769866         33.721702         2.7448184    
  -2.62000    -1936.3345        0.33910895         13.992201        0.37410077E+11     332142.67        0.38656230E+20    0.19753034E+16     6.3874032         78.220206         23.651430         1.9907162    
  -2.61000    -1935.6936        0.32368651         13.995513        0.36425248E+11     335458.62        0.37638595E+20    0.19764624E+16     6.5639484         63.763900         15.303231         1.3286529    
  -2.60000    -1935.0806        0.31032166         13.998681        0.35774438E+11     339531.73        0.36966107E+20    0.19646833E+16     6.6435294         48.854020         8.8227572        0.78784548    
  -2.59000    -1934.4915        0.29899487         14.001726        0.35434896E+11     344257.74        0.36615254E+20    0.19403292E+16     6.6240467         33.958937         4.2225054        0.38652048    
  -2.58000    -1933.9223        0.28966578         14.004668        0.35383331E+11     349502.88        0.36561972E+20    0.19047142E+16     6.5119375         19.517754         1.3928017        0.13021748    
  -2.57000    -1933.3693        0.28227788         14.007526        0.35596416E+11     355111.48        0.36782155E+20    0.18598802E+16     6.3205928         5.9033408        0.12818372        0.12192509E-01
  -2.56000    -1932.8288        0.27676310         14.010320        0.36051214E+11     360915.77        0.37252102E+20    0.18083068E+16     6.0678013        -6.6012881        0.16233350        0.15645189E-01
  -2.55000    -1932.2972        0.27304627         14.013067        0.36725543E+11     366746.51        0.37948894E+20    0.17526179E+16     5.7729546        -17.811468         1.2039226        0.11708084    
  -2.54000    -1931.7711        0.27104911         14.015786        0.37598261E+11     372443.06        0.38850683E+20    0.16953320E+16     5.4546403        -27.636158         2.9672489        0.28997915    
  -2.53000    -1931.2472        0.27069378         14.018494        0.38649474E+11     377861.51        0.39936912E+20    0.16386847E+16     5.1289789        -36.064082         5.1942668        0.50806217    
  -2.52000    -1930.7226        0.27190576         14.021205        0.39860674E+11     382880.38        0.41188457E+20    0.15845275E+16     4.8087728        -43.145371         7.6673263        0.74772711    
  -2.51000    -1930.1941        0.27461632         14.023937        0.41214816E+11     387403.48        0.42587707E+20    0.15342935E+16     4.5033343        -48.972572         10.213864        0.98950345    
  -2.50000    -1929.6590        0.27876434         14.026702        0.42696352E+11     391360.31        0.44118594E+20    0.14890106E+16     4.2187728        -53.663634         12.705209         1.2186204    
  -2.49000    -1929.1145        0.28429770         14.029517        0.44291218E+11     394704.55        0.45766586E+20    0.14493452E+16     3.9585244        -57.348146         15.051760         1.4248960    
  -2.48000    -1928.5580        0.29117429         14.032393        0.45986801E+11     397411.19        0.47518650E+20    0.14156593E+16     3.7239570        -60.157132         17.196432         1.6021916    
  -2.47000    -1927.9869        0.29936260         14.035345        0.47771884E+11     399472.99        0.49363195E+20    0.13880712E+16     3.5149447        -62.216086         19.107710         1.7476524    
  -2.46000    -1927.3987        0.30884209         14.038384        0.49636571E+11     400896.85        0.51289996E+20    0.13665129E+16     3.3303592        -63.640665         20.773137         1.8608979    
  -2.45000    -1926.7910        0.31960326         14.041526        0.51572196E+11     401700.35        0.53290098E+20    0.13507796E+16     3.1684583        -64.534425         22.193685         1.9432711    
  -2.44000    -1926.1611        0.33164750         14.044781        0.53571211E+11     401908.66        0.55355701E+20    0.13405726E+16     3.0271782        -64.987997         23.379147         1.9972034    
  -2.43000    -1925.5068        0.34498677         14.048163        0.55627059E+11     401552.03        0.57480030E+20    0.13355326E+16     2.9043404        -65.079269         24.344582         2.0257172    
  -2.42000    -1924.8253        0.35964324         14.051685        0.57734039E+11     400663.72        0.59657196E+20    0.13352668E+16     2.7977907        -64.874189         25.107688         2.0320618    
  -2.41000    -1924.1142        0.37564889         14.055360        0.59887170E+11     399278.42        0.61882049E+20    0.13393683E+16     2.7054864        -64.427921         25.686973         2.0194648    
  -2.40000    -1923.3708        0.39304532         14.059203        0.62082052E+11     397430.98        0.64150044E+20    0.13474306E+16     2.6255450        -63.786144         26.100550         1.9909760    
  -2.39000    -1922.5923        0.41188360         14.063226        0.64314758E+11     395155.54        0.66457122E+20    0.13590569E+16     2.5562665        -62.986342         26.365397         1.9493781    
  -2.38000    -1921.7760        0.43222445         14.067445        0.66581717E+11     392484.79        0.68799595E+20    0.13738667E+16     2.4961388        -62.059014         26.496934         1.8971464    
  -2.37000    -1920.9188        0.45413858         14.071876        0.68879623E+11     389449.53        0.71174046E+20    0.13914994E+16     2.4438322        -61.028742         26.508826         1.8364383    
  -2.36000    -1920.0175        0.47770728         14.076534        0.71205336E+11     386078.25        0.73577230E+20    0.14116174E+16     2.3981900        -59.915144         26.412934         1.7691046    
  -2.35000    -1919.0691        0.50302311         14.081436        0.73555794E+11     382397.00        0.76005983E+20    0.14339077E+16     2.3582152        -58.733701         26.219386         1.6967141    
  -2.34000    -1918.0698        0.53019084         14.086600        0.75927914E+11     378429.19        0.78457120E+20    0.14580826E+16     2.3230566        -57.496512         25.936738         1.6205856    
  -2.33000    -1917.0161        0.55932844         14.092046        0.78318514E+11     374195.68        0.80927353E+20    0.14838808E+16     2.2919952        -56.212962         25.572211         1.5418251    
  -2.32000    -1915.9041        0.59056826         14.097794        0.80724244E+11     369714.89        0.83413219E+20    0.15110661E+16     2.2644284        -54.890323         25.131965         1.4613620    
  -2.31000    -1914.7294        0.62405826         14.103865        0.83141532E+11     365003.01        0.85911028E+20    0.15394264E+16     2.2398556        -53.534264         24.621391         1.3799837    
  -2.30000    -1913.4876        0.65996326         14.110283        0.85566562E+11     360074.33        0.88416837E+20    0.15687717E+16     2.2178634        -52.149273         24.045372         1.2983639    
  -2.29000    -1912.1739        0.69846623         14.117073        0.87995262E+11     354941.63        0.90926439E+20    0.15989317E+16     2.1981116        -50.738980         23.408504         1.2170866    
  -2.28000    -1910.7830        0.73976930         14.124262        0.90423315E+11     349616.61        0.93435371E+20    0.16297530E+16     2.1803212        -49.306403         22.715273         1.1366634    
  -2.27000    -1909.3093        0.78409475         14.131878        0.92846168E+11     344110.34        0.95938932E+20    0.16610975E+16     2.1642641        -47.854119         21.970176         1.0575460    
  -2.26000    -1907.7467        0.83168545         14.139954        0.95259060E+11     338433.69        0.98432198E+20    0.16928400E+16     2.1497539        -46.384398         21.177809        0.98013613    
  -2.25000    -1906.0887        0.88280505         14.148524        0.97657041E+11     332597.80        0.10091006E+21    0.17248673E+16     2.1366394        -44.899295         20.342930        0.90479128    
  -2.24000    -1904.3281        0.93773761         14.157623        0.10003500E+12     326614.40        0.10336723E+21    0.17570758E+16     2.1247979        -43.400731         19.470494        0.83182925    
  -2.23000    -1902.4573        0.99678666         14.167292        0.10238771E+12     320496.15        0.10579831E+21    0.17893712E+16     2.1141301        -41.890541         18.565672        0.76153050    
  -2.22000    -1900.4680         1.0602735         14.177574        0.10470985E+12     314256.90        0.10819780E+21    0.18216669E+16     2.1045563        -40.370517         17.633847        0.69413919    
  -2.21000    -1898.3514         1.1285347         14.188514        0.10699605E+12     307911.85        0.11056015E+21    0.18538832E+16     2.0960120        -38.842433         16.680592        0.62986329    
  -2.20000    -1896.0977         1.2019189         14.200161        0.10924092E+12     301477.64        0.11287981E+21    0.18859465E+16     2.0884454        -37.308059         15.711642        0.56887419    
  -2.19000    -1893.6968         1.2807821         14.212570        0.11143915E+12     294972.32        0.11515125E+21    0.19177885E+16     2.0818146        -35.769171         14.732838        0.51130616    
  -2.18000    -1891.1377         1.3654827         14.225797        0.11358545E+12     288415.27        0.11736905E+21    0.19493455E+16     2.0760855        -34.227555         13.750084        0.45725590    
  -2.17000    -1888.4089         1.4563745         14.239901        0.11567472E+12     281827.06        0.11952791E+21    0.19805581E+16     2.0712297        -32.684988         12.769268        0.40678230    
  -2.16000    -1885.4979         1.5537995         14.254946        0.11770198E+12     275229.13        0.12162271E+21    0.20113700E+16     2.0672229        -31.143220         11.796188        0.35990660    
  -2.15000    -1882.3918         1.6580796         14.270999        0.11966252E+12     268643.53        0.12364855E+21    0.20417286E+16     2.0640442        -29.603929         10.836468        0.31661313    
  -2.14000    -1879.0771         1.7695074         14.288131        0.12155182E+12     262092.47        0.12560079E+21    0.20715850E+16     2.0616760        -28.068673         9.8954631        0.27685092    
  -2.13000    -1875.5396         1.8883376         14.306414        0.12336565E+12     255597.92        0.12747504E+21    0.21008954E+16     2.0601047        -26.538841         8.9781954        0.24053636    
  -2.12000    -1871.7650         2.0147782         14.325923        0.12510000E+12     249181.07        0.12926716E+21    0.21296229E+16     2.0593231        -25.015626         8.0893002        0.20755708    
  -2.11000    -1867.7381         2.1489835         14.346736        0.12675109E+12     242861.86        0.13097325E+21    0.21577400E+16     2.0593328        -23.500016         7.2330076        0.17777675    
  -2.10000    -1863.4441         2.2910492         14.368929        0.12831531E+12     236658.46        0.13258958E+21    0.21852320E+16     2.0601468        -21.992825         6.4131503        0.15104044    
  -2.09000    -1858.8675         2.4410101         14.392583        0.12978922E+12     230586.84        0.13411257E+21    0.22120989E+16     2.0617930        -20.494743         5.6331908        0.12718020    
  -2.08000    -1853.9931         2.5988422         14.417776        0.13116944E+12     224660.32        0.13553878E+21    0.22383597E+16     2.0643167        -19.006427         4.8962607        0.10602038    
  -2.07000    -1848.8059         2.7644682         14.444586        0.13245271E+12     218889.35        0.13686479E+21    0.22640540E+16     2.0677834        -17.528610         4.2052005        0.87382353E-01
