   emu(eV)      n(10^20/cm3)               DOS            intDOS            DOSvk2         |vk|(m/s)             sigma                ke      L(1E-8V2K-2)           S(uV/K)                PF  EFF(10^-20 W^5/3 m s^-1/3 K^-2)
  -3.00000    -1991.9815         1.1333575         13.704593        0.20970629E+12     430152.31        0.21669174E+21    0.36511214E+16     2.1061725         49.220894         52.497828         1.9767033    
  -2.99000    -1989.8013         1.1202514         13.715861        0.20436395E+12     427114.58        0.21117144E+21    0.35349590E+16     2.0924698         50.961147         54.842037         2.0810444    
  -2.98000    -1987.6464         1.1072078         13.726999        0.19895797E+12     423902.61        0.20558538E+21    0.34188258E+16     2.0787141         52.806940         57.328983         2.1924662    
  -2.97000    -1985.5168         1.0941739         13.738006        0.19348656E+12     420515.71        0.19993172E+21    0.33029786E+16     2.0650667         54.763752         59.960893         2.3112945    
  -2.96000    -1983.4124         1.0810887         13.748882        0.18794856E+12     416954.66        0.19420924E+21    0.31876994E+16     2.0517171         56.836801         62.737779         2.4378090    
  -2.95000    -1981.3334         1.0678828         13.759627        0.18234353E+12     413221.94        0.18841750E+21    0.30732966E+16     2.0388874         59.030943         65.656946         2.5722295    
  -2.94000    -1979.2802         1.0544780         13.770239        0.17667189E+12     409321.89        0.18255695E+21    0.29601067E+16     2.0268379         61.350548         68.712421         2.7146989    
  -2.93000    -1977.2532         1.0407870         13.780716        0.17093510E+12     405260.90        0.17662906E+21    0.28484968E+16     2.0158750         63.799329         71.894286         2.8652635    
  -2.92000    -1975.2530         1.0267133         13.791053        0.16513574E+12     401047.62        0.17063652E+21    0.27388674E+16     2.0063608         66.380106         75.187885         3.0238471    
  -2.91000    -1973.2805         1.0121518         13.801248        0.15927771E+12     396693.13        0.16458334E+21    0.26316551E+16     1.9987252         69.094484         78.572873         3.1902177    
  -2.90000    -1971.3367        0.99698886         13.811294        0.15336637E+12     392211.13        0.15847510E+21    0.25273352E+16     1.9934797         71.942412         82.022128         3.3639453    
  -2.89000    -1969.4229        0.98110498         13.821186        0.14740882E+12     387618.05        0.15231910E+21    0.24264227E+16     1.9912331         74.921639         85.500548         3.5443507    
  -2.88000    -1967.5407        0.96437684         13.830914        0.14141405E+12     382933.09        0.14612464E+21    0.23294712E+16     1.9927091         78.027025         88.963847         3.7304436    
  -2.87000    -1965.6917        0.94668154         13.840470        0.13539322E+12     378178.21        0.13990325E+21    0.22370706E+16     1.9987657         81.249748         92.357433         3.9208541    
  -2.86000    -1963.8781        0.92790150         13.849844        0.12935985E+12     373378.08        0.13366891E+21    0.21498418E+16     2.0104169         84.576364         95.615526         4.1137568    
  -2.85000    -1962.1019        0.90793040         13.859024        0.12332999E+12     368559.89        0.12743819E+21    0.20684308E+16     2.0288569         87.987740         98.660638         4.3067896    
  -2.84000    -1960.3655        0.88667976         13.867998        0.11732229E+12     363753.23        0.12123036E+21    0.19935001E+16     2.0554876         91.457826         101.40355         4.4969708    
  -2.83000    -1958.6716        0.86408572         13.876753        0.11135797E+12     358989.90        0.11506737E+21    0.19257189E+16     2.0919472         94.952244         103.74392         4.6806145    
  -2.82000    -1957.0227        0.84011571         13.885275        0.10546072E+12     354303.80        0.10897368E+21    0.18657513E+16     2.1401399         98.426684         105.57165         4.8532502    
  -2.81000    -1955.4215        0.81477438         13.893551        0.99656429E+11     349730.88        0.10297605E+21    0.18142406E+16     2.2022604         101.82509         106.76916         5.0095534    
  -2.80000    -1953.8707        0.78810825         13.901566        0.93972857E+11     345309.30        0.97103151E+20    0.17717891E+16     2.2808079         105.07769         107.21470         5.1433000    
  -2.79000    -1952.3726        0.76020850         13.909309        0.88439155E+11     341079.75        0.91385118E+20    0.17389324E+16     2.3785771         108.09893         106.78697         5.2473645    
  -2.78000    -1950.9296        0.73121164         13.916767        0.83085333E+11     337085.94        0.85852957E+20    0.17161043E+16     2.4986099         110.78557         105.37113         5.3137895    
  -2.77000    -1949.5437        0.70129758         13.923930        0.77941632E+11     333375.42        0.80537916E+20    0.17035931E+16     2.6440854         113.01514         102.86642         5.3339650    
  -2.76000    -1948.2163        0.67068519         13.930790        0.73037849E+11     330000.52        0.75470785E+20    0.17014857E+16     2.8181198         114.64533         99.195412         5.2989589    
  -2.75000    -1946.9486        0.63962567         13.937342        0.68402618E+11     327019.33        0.70681152E+20    0.17096034E+16     3.0234428         115.51495         94.314829         5.2000497    
  -2.74000    -1945.7413        0.60839413         13.943582        0.64062690E+11     324496.55        0.66196658E+20    0.17274277E+16     3.2619240         115.44723         88.227322         5.0294967    
  -2.73000    -1944.5943        0.57727996         13.949510        0.60042232E+11     322504.05        0.62042276E+20    0.17540276E+16     3.5339362         114.25652         80.993420         4.7815664    
  -2.72000    -1943.5071        0.54657695         13.955129        0.56362182E+11     321120.66        0.58239641E+20    0.17879951E+16     3.8375818         111.75918         72.741977         4.4537825    
  -2.71000    -1942.4788        0.51657350         13.960444        0.53039688E+11     320430.92        0.54806473E+20    0.18274094E+16     4.1678687         107.78916         63.676921         4.0482944    
  -2.70000    -1941.5076        0.48754382         13.965464        0.50087669E+11     320522.55        0.51756121E+20    0.18698485E+16     4.5160081         102.21804         54.077528         3.5731603    
  -2.69000    -1940.5914        0.45974029         13.970199        0.47514518E+11     321482.16        0.49097256E+20    0.19124696E+16     4.8690848         94.977673         44.289449         3.0432433    
  -2.68000    -1939.7276        0.43338738         13.974664        0.45323961E+11     323389.41        0.46833730E+20    0.19521746E+16     5.2103862         86.082326         34.704575         2.4803559    
  -2.67000    -1938.9132        0.40867719         13.978873        0.43515085E+11     326309.50        0.44964599E+20    0.19858569E+16     5.5206121         75.645501         25.729831         1.9123239    
  -2.66000    -1938.1450        0.38576666         13.982843        0.42082537E+11     330284.82        0.43484332E+20    0.20107084E+16     5.7799795         63.886270         17.747936         1.3708066    
  -2.65000    -1937.4192        0.36477643         13.986594        0.41016865E+11     335326.48        0.42383162E+20    0.20245354E+16     5.9709306         51.121105         11.076278        0.88801594    
  -2.64000    -1936.7321        0.34579111         13.990145        0.40304995E+11     341407.08        0.41647579E+20    0.20260212E+16     6.0808493         37.740196         5.9319580        0.49283359    
  -2.63000    -1936.0798        0.32886091         13.993517        0.39930796E+11     348455.93        0.41260916E+20    0.20148758E+16     6.1040688         24.171292         2.4106745        0.20709766    
  -2.62000    -1935.4582        0.31400440         13.996730        0.39875719E+11     356357.90        0.41204004E+20    0.19918357E+16     6.0426036         10.837767        0.48397071        0.42878544E-01
  -2.61000    -1934.8634        0.30121223         13.999804        0.40119452E+11     364956.58        0.41455856E+20    0.19585198E+16     5.9054377        -1.8808046        0.14664702E-01    0.13357841E-02
  -2.60000    -1934.2913        0.29045136         14.002761        0.40640573E+11     374061.66        0.41994335E+20    0.19171775E+16     5.7066551        -13.678378        0.78570575        0.73325624E-01
  -2.59000    -1933.7382        0.28166976         14.005620        0.41417159E+11     383459.97        0.42796791E+20    0.18703912E+16     5.4630008        -24.338440         2.5351092        0.24148007    
  -2.58000    -1933.2001        0.27480123         14.008400        0.42427343E+11     392928.55        0.43840624E+20    0.18207918E+16     5.1915086        -33.736121         4.9896147        0.48316932    
  -2.57000    -1932.6736        0.26977000         14.011122        0.43649781E+11     402248.30        0.45103783E+20    0.17708304E+16     4.9076548        -41.829252         7.8917472        0.77366957    
  -2.56000    -1932.1551        0.26649510         14.013802        0.45064040E+11     411216.42        0.46565151E+20    0.17226258E+16     4.6242354        -48.642649         11.017815         1.0889654    
  -2.55000    -1931.6413        0.26489420         14.016457        0.46650884E+11     419656.26        0.48204854E+20    0.16778884E+16     4.3509323        -54.249865         14.186919         1.4078333    
  -2.54000    -1931.1290        0.26488691         14.019105        0.48392479E+11     427423.78        0.50004462E+20    0.16379053E+16     4.0943978        -58.755656         17.262676         1.7130863    
  -2.53000    -1930.6153        0.26639746         14.021760        0.50272507E+11     434410.42        0.51947116E+20    0.16035677E+16     3.8586543        -62.281110         20.149957         1.9920437    
  -2.52000    -1930.0972        0.26935684         14.024438        0.52276214E+11     440542.75        0.54017567E+20    0.15754236E+16     3.6456280        -64.952226         22.788886         2.2363986    
  -2.51000    -1929.5721        0.27370441         14.027152        0.54390398E+11     445779.63        0.56202176E+20    0.15537394E+16     3.4556923        -66.891911         25.147819         2.4416903    
  -2.50000    -1929.0372        0.27938908         14.029916        0.56603367E+11     450107.68        0.58488861E+20    0.15385609E+16     3.2881495        -68.214904         27.216464         2.6065749    
  -2.49000    -1928.4901        0.28637008         14.032744        0.58904869E+11     453536.01        0.60867026E+20    0.15297690E+16     3.1416209        -69.024982         28.999779         2.7320441    
  -2.48000    -1927.9282        0.29461749         14.035648        0.61286004E+11     456090.89        0.63327479E+20    0.15271255E+16     3.0143422        -69.413766         30.512895         2.8206932    
  -2.47000    -1927.3492        0.30411244         14.038640        0.63739140E+11     457810.77        0.65862330E+20    0.15303117E+16     2.9043758        -69.460614         31.777105         2.8760934    
  -2.46000    -1926.7506        0.31484713         14.041734        0.66257801E+11     458742.15        0.68464890E+20    0.15389569E+16     2.8097556        -69.233171         32.816809         2.9022934    
  -2.45000    -1926.1301        0.32682458         14.044941        0.68836563E+11     458936.11        0.71129551E+20    0.15526622E+16     2.7285815        -68.788301         33.657297         2.9034490    
  -2.44000    -1925.4851        0.34005833         14.048275        0.71470924E+11     458445.79        0.73851665E+20    0.15710173E+16     2.6590756        -68.173228         34.323218         2.8835700    
  -2.43000    -1924.8133        0.35457195         14.051747        0.74157185E+11     457324.46        0.76627407E+20    0.15936128E+16     2.5996129        -67.426738         34.837616         2.8463630    
  -2.42000    -1924.1122        0.37039867         14.055371        0.76892324E+11     455624.20        0.79453655E+20    0.16200492E+16     2.5487330        -66.580381         35.221385         2.7951488    
  -2.41000    -1923.3791        0.38758102         14.059159        0.79673885E+11     453395.02        0.82327871E+20    0.16499418E+16     2.5051386        -65.659585         35.493037         2.7328320    
  -2.40000    -1922.6115        0.40617077         14.063127        0.82499887E+11     450684.21        0.85248010E+20    0.16829230E+16     2.4676867        -64.684654         35.668658         2.6619043    
  -2.39000    -1921.8065        0.42622893         14.067288        0.85368748E+11     447536.02        0.88212435E+20    0.17186434E+16     2.4353757        -63.671613         35.761976         2.5844671    
  -2.38000    -1920.9611        0.44782608         14.071657        0.88279216E+11     443991.39        0.91219852E+20    0.17567709E+16     2.4073308        -62.632908         35.784464         2.5022635    
  -2.37000    -1920.0725        0.47104290         14.076250        0.91230307E+11     440087.81        0.94269245E+20    0.17969904E+16     2.3827899        -61.577987         35.745469         2.4167152    
  -2.36000    -1919.1373        0.49597088         14.081083        0.94221242E+11     435859.31        0.97359810E+20    0.18390027E+16     2.3610907        -60.513778         35.652357         2.3289611    
  -2.35000    -1918.1521        0.52271318         14.086175        0.97251383E+11     431336.46        0.10049089E+21    0.18825234E+16     2.3416593        -59.445101         35.510666         2.2398966    
  -2.34000    -1917.1133        0.55138566         14.091544        0.10032016E+12     426546.50        0.10366189E+21    0.19272820E+16     2.3240002        -58.375033         35.324287         2.1502116    
  -2.33000    -1916.0171        0.58211809         14.097210        0.10342703E+12     421513.50        0.10687225E+21    0.19730205E+16     2.3076857        -57.305214         35.095646         2.0604272    
  -2.32000    -1914.8593        0.61505539         14.103194        0.10657140E+12     416258.60        0.11012136E+21    0.20194914E+16     2.2923475        -56.236111         34.825882         1.9709279    
  -2.31000    -1913.6355        0.65035898         14.109519        0.10975259E+12     410800.37        0.11340852E+21    0.20664556E+16     2.2776679        -55.167220         34.515000         1.8819896    
  -2.30000    -1912.3410        0.68820806         14.116209        0.11296982E+12     405155.12        0.11673291E+21    0.21136808E+16     2.2633729        -54.097217         34.161991         1.7938031    
  -2.29000    -1910.9706        0.72880082         14.123292        0.11622211E+12     399337.36        0.12009354E+21    0.21609396E+16     2.2492256        -53.024071         33.764923         1.7064935    
  -2.28000    -1909.5189        0.77235544         14.130795        0.11950828E+12     393360.18        0.12348918E+21    0.22080084E+16     2.2350222        -51.945115         33.321022         1.6201365    
  -2.27000    -1907.9798        0.81911076         14.138750        0.12282690E+12     387235.73        0.12691834E+21    0.22546666E+16     2.2205880        -50.857117         32.826746         1.5347731    
  -2.26000    -1906.3470        0.86932664         14.147189        0.12617616E+12     380975.59        0.13037916E+21    0.23006967E+16     2.2057749        -49.756326         32.277865         1.4504215    
  -2.25000    -1904.6134        0.92328380         14.156149        0.12955387E+12     374591.21        0.13386939E+21    0.23458836E+16     2.1904594        -48.638515         31.669551         1.3670882    
  -2.24000    -1902.7716        0.98128311         14.165668        0.13295734E+12     368094.22        0.13738623E+21    0.23900159E+16     2.1745410        -47.499015         30.996483         1.2847767    
  -2.23000    -1900.8134         1.0436442         14.175789        0.13638329E+12     361496.70        0.14092630E+21    0.24328863E+16     2.1579421        -46.332738         30.252968         1.2034954    
  -2.22000    -1898.7300         1.1107034         14.186557        0.13982774E+12     354811.44        0.14448549E+21    0.24742937E+16     2.1406074        -45.134204         29.433087         1.1232640    
  -2.21000    -1896.5121         1.1828105         14.198020        0.14328590E+12     348052.01        0.14805884E+21    0.25140459E+16     2.1225057        -43.897576         28.530897         1.0441192    
  -2.20000    -1894.1495         1.2603247         14.210231        0.14675199E+12     341232.80        0.15164039E+21    0.25519629E+16     2.1036306        -42.616715         27.540691        0.96612053    
  -2.19000    -1891.6313         1.3436098         14.223246        0.15021910E+12     334368.99        0.15522299E+21    0.25878805E+16     2.0840023        -41.285262         26.457338        0.88935565    
  -2.18000    -1888.9462         1.4330277         14.237123        0.15367903E+12     327476.41        0.15879818E+21    0.26216551E+16     2.0636691        -39.896735         25.276691        0.81394540    
  -2.17000    -1886.0818         1.5289313         14.251928        0.15712213E+12     320571.34        0.16235596E+21    0.26531670E+16     2.0427083        -38.444656         23.996075        0.74004760    
  -2.16000    -1883.0254         1.6316566         14.267725        0.16053713E+12     313670.27        0.16588472E+21    0.26823252E+16     2.0212269        -36.922686         22.614810        0.66785962    
  -2.15000    -1879.7633         1.7415137         14.284585        0.16391101E+12     306789.59        0.16937099E+21    0.27090717E+16     1.9993622        -35.324780         21.134791        0.59761956    
  -2.14000    -1876.2815         1.8587775         14.302580        0.16722891E+12     299945.24        0.17279941E+21    0.27333851E+16     1.9772818        -33.645367         19.561079        0.52960567    
  -2.13000    -1872.5655         1.9836795         14.321786        0.17047402E+12     293152.33        0.17615262E+21    0.27552848E+16     1.9551830        -31.879542         17.902482        0.46413430    
  -2.12000    -1868.6003         2.1163996         14.342279        0.17362758E+12     286424.74        0.17941122E+21    0.27748337E+16     1.9332916        -30.023291         16.172092        0.40155576    
  -2.11000    -1864.3707         2.2570603         14.364140        0.17666894E+12     279774.75        0.18255389E+21    0.27921390E+16     1.9118595        -28.073729         14.387698        0.34224777    
  -2.10000    -1859.8611         2.4057235         14.387447        0.17957572E+12     273212.74        0.18555749E+21    0.28073519E+16     1.8911604        -26.029331         12.572004        0.28660613    
  -2.09000    -1855.0562         2.5623911         14.412281        0.18232410E+12     266746.87        0.18839743E+21    0.28206640E+16     1.8714851        -23.890150         10.752582        0.23503213    
  -2.08000    -1849.9405         2.7270085         14.438722        0.18488925E+12     260382.97        0.19104803E+21    0.28323024E+16     1.8531351        -21.657993         8.9614645        0.18791701    
  -2.07000    -1844.4986         2.8994734         14.466848        0.18724580E+12     254124.47        0.19348308E+21    0.28425228E+16     1.8364156        -19.336545         7.2343706        0.14562394    
