   emu(eV)      n(10^20/cm3)               DOS            intDOS       tau(1E-14s)         |vk|(m/s)        sigma(S/m)       ke(Wm-1K-1)      L(1E-8V2K-2)           S(uV/K)   PF(1E-4Wm-1K-2)
  -3.00000    -1991.9815         1.1333575         13.704593         3.8731312         430152.31         8338127.1         131.17507         1.9664948         40.671394         137.92615    
  -2.99000    -1989.8013         1.1202514         13.715861         3.8891602         427114.58         8159477.3         127.32233         1.9505282         42.782123         149.34373    
  -2.98000    -1987.6464         1.1072078         13.726999         3.9042031         423902.61         7974814.6         123.42448         1.9345980         45.006188         161.53442    
  -2.97000    -1985.5168         1.0941739         13.738006         3.9182246         420515.71         7784121.6         119.49100         1.9188260         47.348673         174.51197    
  -2.96000    -1983.4124         1.0810887         13.748882         3.9311942         416954.66         7587417.6         115.53223         1.9033522         49.814533         188.28084    
  -2.95000    -1981.3334         1.0678828         13.759627         3.9430862         413221.94         7384764.8         111.55948         1.8883384         52.408548         202.83407    
  -2.94000    -1979.2802         1.0544780         13.770239         3.9538803         409321.89         7176273.2         107.58507         1.8739718         55.135236         218.15112    
  -2.93000    -1977.2532         1.0407870         13.780716         3.9635619         405260.90         6962105.9         103.62237         1.8604711         57.998752         234.19516    
  -2.92000    -1975.2530         1.0267133         13.791053         3.9721219         401047.62         6742484.1         99.685965         1.8480942         61.002715         250.91016    
  -2.91000    -1973.2805         1.0121518         13.801248         3.9795572         396693.13         6517692.6         95.791666         1.8371468         64.149966         268.21727    
  -2.90000    -1971.3367        0.99698886         13.811294         3.9858696         392211.13         6288086.5         91.956647         1.8279935         67.442236         286.01080    
  -2.89000    -1969.4229        0.98110498         13.821186         3.9910662         387618.05         6054097.8         88.199432         1.8210689         70.879708         304.15382    
  -2.88000    -1967.5407        0.96437684         13.830914         3.9951583         382933.09         5816244.0         84.539856         1.8168911         74.460485         322.47373    
  -2.87000    -1965.6917        0.94668154         13.840470         3.9981602         378178.21         5575135.1         80.998941         1.8160757         78.179962         340.75819    
  -2.86000    -1963.8781        0.92790150         13.849844         4.0000886         373378.08         5331480.9         77.598715         1.8193518         82.030100         358.75200    
  -2.85000    -1962.1019        0.90793040         13.859024         4.0009604         368559.89         5086094.5         74.361972         1.8275804         85.998595         376.15526    
  -2.84000    -1960.3655        0.88667976         13.867998         4.0007913         363753.23         4839893.3         71.311990         1.8417759         90.067932         392.62339    
  -2.83000    -1958.6716        0.86408572         13.876753         3.9995931         358989.90         4593895.6         68.472224         1.8631307         94.214282         407.76938    
  -2.82000    -1957.0227        0.84011571         13.885275         3.9973719         354303.80         4349212.3         65.865945         1.8930424         98.406237         421.16847    
  -2.81000    -1955.4215        0.81477438         13.893551         3.9941246         349730.88         4107033.9         63.515821         1.9331415         102.60334         432.36576    
  -2.80000    -1953.8707        0.78810825         13.901566         3.9898370         345309.30         3868613.5         61.443401         1.9853173         106.75444         440.88690    
  -2.79000    -1952.3726        0.76020850         13.909309         3.9844796         341079.75         3635245.5         59.668455         2.0517340         110.79584         446.25248    
  -2.78000    -1950.9296        0.73121164         13.916767         3.9780054         337085.94         3408240.9         58.208125         2.1348302         114.64946         447.99615    
  -2.77000    -1949.5437        0.70129758         13.923930         3.9703461         333375.42         3188899.9         57.075838         2.2372856         118.22101         445.68724    
  -2.76000    -1948.2163        0.67068519         13.930790         3.9614085         330000.52         2978483.2         56.279945         2.3619381         121.39861         438.95760    
  -2.75000    -1946.9486        0.63962567         13.937342         3.9510716         327019.33         2778182.0         55.822077         2.5116280         124.05216         427.53271    
  -2.74000    -1945.7413        0.60839413         13.943582         3.9391827         324496.55         2589088.5         55.695237         2.6889403         126.03409         411.26618    
  -2.73000    -1944.5943        0.57727996         13.949510         3.9255550         322504.05         2412168.3         55.881743         2.8958252         127.18219         390.17571    
  -2.72000    -1943.5071        0.54657695         13.955129         3.9099648         321120.66         2248235.5         56.351226         3.1330808         127.32523         364.47748    
  -2.71000    -1942.4788        0.51657350         13.960444         3.8921512         320430.92         2097931.6         57.059009         3.3997181         126.29221         334.61427    
  -2.70000    -1941.5076        0.48754382         13.965464         3.8718168         320522.55         1961711.0         57.945330         3.6922698         123.92560         301.27083    
  -2.69000    -1940.5914        0.45974029         13.970199         3.8486327         321482.16         1839830.9         58.935986         4.0041714         120.09817         265.36928    
  -2.68000    -1939.7276        0.43338738         13.974664         3.8222464         323389.41         1732349.3         59.944891         4.3254045         114.73225         228.03760    
  -2.67000    -1938.9132        0.40867719         13.978873         3.7922964         326309.50         1639129.4         60.878924         4.6426264         107.81875         190.54689    
  -2.66000    -1938.1450        0.38576666         13.982843         3.7584310         330284.82         1559850.6         61.644942         4.9399715         99.432205         154.21874    
  -2.65000    -1937.4192        0.36477643         13.986594         3.7203342         335326.48         1494025.4         62.158284         5.2005711         89.737725         120.31177    
  -2.64000    -1936.7321        0.34579111         13.990145         3.6777555         341407.08         1441021.1         62.351472         5.4086190         78.986617         89.903657    
  -2.63000    -1936.0798        0.32886091         13.993517         3.6305422         348455.93         1400085.0         62.181468         5.5515798         67.499407         63.790252    
  -2.62000    -1935.4582        0.31400440         13.996730         3.5786701         356357.90         1370372.0         61.633939         5.6220080         55.638224         42.421401    
  -2.61000    -1934.8634        0.30121223         13.999804         3.5222674         364956.58         1350972.3         60.723600         5.6185089         43.773258         25.885955    
  -2.60000    -1934.2913        0.29045136         14.002761         3.4616273         374061.66         1340938.4         59.490666         5.5456189         32.249559         13.946216    
  -2.59000    -1933.7382        0.28166976         14.005620         3.3972065         383459.97         1339310.3         57.994347         5.4127065         21.360039         6.1106202    
  -2.58000    -1933.2001        0.27480123         14.008400         3.3296053         392928.55         1345137.9         56.304876         5.2322586         11.328466         1.7262713    
  -2.57000    -1932.6736        0.26977000         14.011122         3.2595336         402248.30         1357499.9         54.495633         5.0180143         2.3034480        0.72027220E-01
  -2.56000    -1932.1551        0.26649510         14.013802         3.1877656         411216.42         1375518.9         52.636572         4.7833379        -5.6380515        0.43724478    
  -2.55000    -1931.6413        0.26489420         14.016457         3.1150899         419656.26         1398372.4         50.789572         4.5400613        -12.480581         2.1781735    
  -2.54000    -1931.1290        0.26488691         14.019105         3.0422620         427423.78         1425301.0         49.005813         4.2978476        -18.256718         4.7506388    
  -2.53000    -1930.6153        0.26639746         14.021760         2.9699642         434410.42         1455612.2         47.324905         4.0640035        -23.032990         7.7222941    
  -2.52000    -1930.0972        0.26935684         14.024438         2.8987784         440542.75         1488681.9         45.775292         3.8436092        -26.897108         10.769935    
  -2.51000    -1929.5721        0.27370441         14.027152         2.8291710         445779.63         1523953.7         44.375451         3.6398294        -29.947490         13.667611    
  -2.50000    -1929.0372        0.27938908         14.029916         2.7614906         450107.68         1560936.4         43.135473         3.4542947        -32.285358         16.270331    
  -2.49000    -1928.4901        0.28637008         14.032744         2.6959748         453536.01         1599200.6         42.058718         3.2874798        -34.009231         18.496799    
  -2.48000    -1927.9282        0.29461749         14.035648         2.6327640         456090.89         1638375.0         41.143377         3.1390384        -35.211398         20.313270    
  -2.47000    -1927.3492        0.30411244         14.038640         2.5719183         457810.77         1678141.9         40.383832         3.0080764        -35.975897         21.719606    
  -2.46000    -1926.7506        0.31484713         14.041734         2.5134360         458742.15         1718232.6         39.771795         2.8933652        -36.377595         22.737877    
  -2.45000    -1926.1301        0.32682458         14.044941         2.4572697         458936.11         1758422.9         39.297232         2.7934997        -36.482011         23.403504    
  -2.44000    -1925.4851        0.34005833         14.048275         2.4033416         458445.79         1798528.3         38.949095         2.7070116        -36.345644         23.758663    
  -2.43000    -1924.8133        0.35457195         14.051747         2.3515542         457324.46         1838398.3         38.715881         2.6324466        -36.016617         23.847641    
  -2.42000    -1924.1122        0.37039867         14.055371         2.3017996         455624.20         1877912.4         38.586050         2.5684139        -35.535499         23.713746    
  -2.41000    -1923.3791        0.38758102         14.059159         2.2539657         453395.02         1916975.3         38.548312         2.5136156        -34.936208         23.397424    
  -2.40000    -1922.6115        0.40617077         14.063127         2.2079407         450684.21         1955513.3         38.591811         2.4668594        -34.246884         22.935220    
  -2.39000    -1921.8065        0.42622893         14.067288         2.1636156         447536.02         1993471.0         38.706231         2.4270626        -33.490708         22.359319    
  -2.38000    -1920.9611        0.44782608         14.071657         2.1208868         443991.39         2030808.5         38.881844         2.3932491        -32.686605         21.697444    
  -2.37000    -1920.0725        0.47104290         14.076250         2.0796573         440087.81         2067499.2         39.109527         2.3645431        -31.849846         20.972974    
  -2.36000    -1919.1373        0.49597088         14.081083         2.0398373         435859.31         2103527.4         39.380758         2.3401619        -30.992561         20.205197    
  -2.35000    -1918.1521        0.52271318         14.086175         2.0013454         431336.46         2138886.4         39.687611         2.3194086        -30.124181         19.409672    
  -2.34000    -1917.1133        0.55138566         14.091544         1.9641082         426546.50         2173575.9         40.022733         2.3016642        -29.251833         18.598631    
  -2.33000    -1916.0171        0.58211809         14.097210         1.9280610         421513.50         2207600.5         40.379316         2.2863804        -28.380695         17.781424    
  -2.32000    -1914.8593        0.61505539         14.103194         1.8931473         416258.60         2240968.3         40.751057         2.2730719        -27.514296         16.964948    
  -2.31000    -1913.6355        0.65035898         14.109519         1.8593192         410800.37         2273689.3         41.132107         2.2613087        -26.654776         16.154042    
  -2.30000    -1912.3410        0.68820806         14.116209         1.8265366         405155.12         2305774.4         41.517021         2.2507092        -25.803084         15.351826    
  -2.29000    -1910.9706        0.72880082         14.123292         1.7947672         399337.36         2337234.6         41.900705         2.2409338        -24.959128         14.559991    
  -2.28000    -1909.5189        0.77235544         14.130795         1.7639858         393360.18         2368080.2         42.278374         2.2316798        -24.121885         13.779038    
  -2.27000    -1907.9798        0.81911076         14.138750         1.7341737         387235.73         2398319.3         42.645519         2.2226773        -23.289491         13.008494    
  -2.26000    -1906.3470        0.86932664         14.147189         1.7053177         380975.59         2427957.2         42.997878         2.2136859        -22.459306         12.247112    
  -2.25000    -1904.6134        0.92328380         14.156149         1.6774089         374591.21         2456995.0         43.331418         2.2044926        -21.627968         11.493061    
  -2.24000    -1902.7716        0.98128311         14.165668         1.6504420         368094.22         2485428.5         43.642321         2.1949093        -20.791438         10.744107    
  -2.23000    -1900.8134         1.0436442         14.175789         1.6244139         361496.70         2513246.7         43.926979         2.1847726        -19.945025         9.9977969    
  -2.22000    -1898.7300         1.1107034         14.186557         1.5993223         354811.44         2540430.7         44.182005         2.1739426        -19.083409         9.2516515    
  -2.21000    -1896.5121         1.1828105         14.198020         1.5751649         348052.01         2566951.6         44.404252         2.1623047        -18.200663         8.5033904    
  -2.20000    -1894.1495         1.2603247         14.210231         1.5519377         341232.80         2592768.5         44.590858         2.1497705        -17.290298         7.7511955    
  -2.19000    -1891.6313         1.3436098         14.223246         1.5296346         334368.99         2617826.8         44.739290         2.1362801        -16.345316         6.9940305    
  -2.18000    -1888.9462         1.4330277         14.237123         1.5082459         327476.41         2642055.2         44.847398         2.1218045        -15.358305         6.2320145    
  -2.17000    -1886.0818         1.5289313         14.251928         1.4877581         320571.34         2665364.7         44.913480         2.1063477        -14.321549         5.4668436    
  -2.16000    -1883.0254         1.6316566         14.267725         1.4681528         313670.27         2687645.9         44.936331         2.0899485        -13.227164         4.7022480    
  -2.15000    -1879.7633         1.7415137         14.284585         1.4494071         306789.59         2708767.4         44.915313         2.0726822        -12.067253         3.9444693    
  -2.14000    -1876.2815         1.8587775         14.302580         1.4314926         299945.24         2728575.2         44.850403         2.0546623        -10.834092         3.2027346    
  -2.13000    -1872.5655         1.9836795         14.321786         1.4143764         293152.33         2746891.0         44.742257         2.0360408        -9.5203393         2.4896958    
  -2.12000    -1868.6003         2.1163996         14.342279         1.3980206         286424.74         2763513.1         44.592245         2.0170089        -8.1192855         1.8217852    
  -2.11000    -1864.3707         2.2570603         14.364140         1.3823835         279774.75         2778217.1         44.402475         1.9977954        -6.6251243         1.2194226    
  -2.10000    -1859.8611         2.4057235         14.387447         1.3674202         273212.74         2790758.4         44.175782         1.9786638        -5.0332417        0.70699740    
  -2.09000    -1855.0562         2.5623911         14.412281         1.3530832         266746.87         2800876.7         43.915689         1.9599082        -3.3404991        0.31254799    
  -2.08000    -1849.9405         2.7270085         14.438722         1.3393244         260382.97         2808301.1         43.626317         1.9418465        -1.5454907        0.67077436E-01
  -2.07000    -1844.4986         2.8994734         14.466848         1.3260955         254124.47         2812758.3         43.312283         1.9248135        0.35124666        0.34702185E-02
  -2.06000    -1838.7155         3.0796470         14.496737         1.3133500         247972.46         2813980.6         42.978555         1.9091529         2.3470846        0.15501674    
  -2.05000    -1832.5766         3.2673687         14.528466         1.3010440         241925.95         2811715.9         42.630303         1.8952085         4.4372279        0.55359849    
  -2.04000    -1826.0672         3.4624708         14.562109         1.2891381         235982.20         2805737.3         42.272734         1.8833166         6.6147148         1.2276350    
  -2.03000    -1819.1733         3.6647930         14.597739         1.2775977         230137.21         2795853.5         41.910943         1.8737991         8.8704947         2.1999362    
  -2.02000    -1811.8812         3.8741919         14.635428         1.2663943         224386.32         2781917.5         41.549772         1.8669574         11.193574         3.4856339    
  -2.01000    -1804.1771         4.0905457         14.675246         1.2555060         218724.82         2763834.3         41.193701         1.8630685         13.571215         5.0903717    
  -2.00000    -1796.0478         4.3137492         14.717262         1.2449174         213148.71         2741566.6         40.846769         1.8623826         15.989181         7.0089221    
  -1.99000    -1787.4800         4.5436994         14.761544         1.2346196         207655.28         2715138.2         40.512531         1.8651228         18.431981         9.2243538    
  -1.98000    -1778.4610         4.7802707         14.808158         1.2246092         202243.75         2684635.1         40.194046         1.8714855         20.883124         11.707824    
